Frequency,Nominal,Min,Max
14453.019818729243,0.000007508487517184092,0.000006011556772339212,0.000009396003025926385
14534.578325829496,0.0000076067931533130725,0.000006078161016914588,0.000009539899716261828
14616.597068241392,0.00000770796462402408,0.000006146511709964764,0.000009688476127502202
14699.078643076493,0.000007812116211774462,0.000006216671011764346,0.000009841942020285815
14782.025662101889,0.000007919368089767381,0.0000062887039405272136,0.00001000051933932762
14865.440751822887,0.00000802984669670293,0.000006362678534538974,0.00001016444308930507
14949.32655356619,0.00000814368514005298,0.000006438666025259326,0.000010333962286331138
15033.685723563527,0.000008261023630443943,0.000006516741022322732,0.000010509340992693855
15118.520933035761,0.000008382009949883394,0.000006596981711335457,0.000010690859443426743
15203.83486827748,0.000008506799956998964,0.0000066794700655584246,0.000010878815274283926
15289.63023074205,0.00000863555813267373,0.000006764292072586775,0.000011073524861895628
15375.909737127165,0.00000876845816988662,0.000006851537977267147,0.000011275324788110704
15462.676119460863,0.000008905683611948032,0.0000069413025422516866,0.000011484573442150778
15549.932125188037,0.000009047428543821382,0.000007033685327642142,0.000011701652775803948
15637.680517257433,0.00000919389834167632,0.0000071287909914119116,0.000011926970228942371
15725.924074209146,0.000009345310486486135,0.0000072267296123823795,0.000012160960844823514
15814.665590262586,0.00000950189544806073,0.0000073276170377597934,0.00001240438754965394
15903.907875404971,0.00000966389764672378,0.000007431575257435254,0.000012657575418043078
15993.6537554803,0.000009831576500647357,0.0000075387328074325505,0.00001292124749338547
16083.906072278829,0.000010005207567826511,0.00000764922520523654,0.000013195813303797286
16174.66768362706,0.000010185083792774929,0.000007763195419884466,0.000013481774002932891
16265.941463478233,0.000010371516869279887,0.000007880794380179882,0.000013779791083785838
16357.730302003334,0.000010564838731936365,0.000008002181524576702,0.000014090576254232968
16450.0371056826,0.000010765403190836992,0.000008127525396839725,0.00001441489620317625
16542.864797397564,0.00001097358772566801,0.000008257004291919265,0.000014753577915577131
16636.2163165236,0.000011189795457530649,0.000008390806957055213,0.000015107514611360038
16730.094619023006,0.000011414457319371941,0.000008529133353689635,0.000015477672395150085
16824.502677538592,0.000011648034448639885,0.000008672195486401285,0.000015865097717885312
16919.443481487822,0.0000118910208291287,0.000008820218305825279,0.000016270925768123374
17014.92003715746,0.000012143946212777905,0.000008973440693389933,0.000016696389930815563
17110.935367798775,0.000012407379356552356,0.000009132116536608614,0.00001714283247507943
17207.492513723268,0.00001268193161476391,0.000009296515904807344,0.000017611716661146996
17304.594532398936,0.000012968260933121788,0.000009466926336372554,0.000018104640490855632
17402.2444985471,0.000013267076297925153,0.000009643654250093416,0.00001862335236763126
17500.44550423976,0.000013579142702007037,0.000009827026494737965,0.00001916976898203383
17599.200658997488,0.000013905286698862811,0.000010017392052966462,0.00001974599580008874
17698.51308988793,0.000014246402627859583,0.000010215123917821557,0.000020354828038842753
17798.38594162477,0.000014603459607119118,0.00001042062116254961,0.00002101218880481067
17898.82237666736,0.000014977509406917292,0.000010634311227464929,0.000021709173777473438
17999.82557532083,0.000015369695335805103,0.000010856652450905619,0.000022449250558118275
18101.39873583679,0.00001578126229494379,0.000011088136875321528,0.000023236296650852194
18203.54507451462,0.000016213568184022057,0.000011329293364117181,0.000024074661707559816
18306.26782580329,0.00001666809687586331,0.000011580691070284684,0.00002496924144956928
18409.57024240381,0.000017146473017656106,0.000011842943304189578,0.000025925565886491183
18513.455595372194,0.000017650478966391158,0.000012116711855349729,0.00002694990513788761
18617.927174223052,0.000018182074226787863,0.00001240271183188742,0.00002804939705287421
18722.988287033757,0.000018743417834423006,0.00001270171709172847,0.000029232201984462725
18828.642260549186,0.000019336894218501315,0.00001301456635217424,0.0000305076916026816
18934.89244028707,0.000019965143192356514,0.000013342170079203785,0.000031886680651061026
19041.74219064391,0.00002063109486107404,0.000013685518275725666,0.000033381713241759
19149.194895001536,0.0000213380104124331,0.000014045689309348957,0.00003500741889094925
19257.253955834225,0.000022089529979544362,0.000014423859946011888,0.000036780958360171776
19365.922794816444,0.00002288972904442121,0.00001482131678711709,0.000038722585969386375
19475.204852931194,0.000023743185208561374,0.000015239469345791667,0.000040856364052221084
19585.103590578972,0.00002465505761278842,0.000015679865044334958,0.000043211077566628634
19695.62248768735,0.000025631181875047133,0.000016144206471959328,0.00004582141384711167
19806.765043821146,0.00002667818417334816,0.000016634371312141584,0.000048729495850153594
19918.53477829326,0.000027803619088331385,0.00001715243543594595,0.00005198688933265589
20030.9352302761,0.00002901613711283865,0.000017700699766025957,0.00005565724811121358
20143.96995891365,0.000030325689440301465,0.000018281721651549234,0.00005981982001444589
20257.64254343418,0.00003174377990474033,0.00001889835166475315,0.00006457411150308812
20371.95658326356,0.000033283776964277434,0.00001955377694555024,0.00007004609881224849
20486.915698139266,0.00003496130267652953,0.000020236305496562157,0.00007639646183327314
20602.523528224974,0.00003679472109800556,0.00002096031746712607,0.00008383135169624052
20718.78373422583,0.000038805755993889044,0.000021731869601508585,0.00009261604277598868
20835.699997504373,0.00004102027792677596,0.0000225555000134261,0.00010309111193517283
20953.276020197092,0.000043469314751016036,0.000023436332700559692,0.00011568870121160458
21071.515525331673,0.00004619035870520479,0.000024380174782675895,0.00013094111273279828
21190.422256944872,0.00004922906957489354,0.000025393633667188734,0.0001494617540357465
21309.999980201075,0.00005264150919848461,0.000026484259018200584,0.00017185330491094843
21430.25248151152,0.00005649709063511619,0.000027660715790131414,0.00019846626432711573
21551.1835686542,0.000060882487842148965,0.00002893299641784484,0.00022883461819200824
21672.79707089442,0.00006590682811221247,0.00003031268269083868,0.0002608368421608845
21795.096839106067,0.00007170857015500218,0.00003181327109970702,0.00028991519398804716
21918.086745893535,0.00007846452165468176,0.00003345057983492296,0.00030964840759456274
22041.770685714368,0.00008640137692724742,0.000035243261567597546,0.00032575319786933623
22166.152575002543,0.00009580971939878149,0.0000372134542426222,0.0003452104463785199
22291.23635229253,0.00010705906769530773,0.000039387613190029495,0.00034408310086854536
22417.02597834396,0.00012060897255261117,0.00004179758304022626,0.0003251185988269072
22543.525436267082,0.0001370027487369084,0.00004448198873397563,0.0003265911965366283
22670.73873164885,0.00015681247989877094,0.00004748805331717379,0.00035671798127634533
22798.669892679787,0.0001804713870440369,0.00005087398855865549,0.0003699779063724344
22927.322970281533,0.00020788983169864198,0.000054712155048353504,0.0003637427051794069
23056.702038235093,0.0002377679874397423,0.00005909325225517992,0.0003437002501068522
23186.81119330987,0.00026678009074561934,0.00006413187191540453,0.00034191563072152745
23317.654555393357,0.0002894870689224235,0.00006997381166789566,0.0003693249852312524
23449.236267621614,0.0003002676784894851,0.00007680554522069821,0.0003998424273508355
23581.56049651045,0.0002968798669382999,0.00007341097074165044,0.00041382309603092227
23714.631432087346,0.00028226112782450056,0.00007094525440015926,0.00040825835073681036
23848.453288024157,0.00026234994344355016,0.00006942464837110384,0.00038933949485573554
23983.030301770505,0.00024251970986859345,0.00006870934306039954,0.00042122077041754083
24118.366734687992,0.00022586623388831748,0.00006869735434164512,0.00043759089955548204
24254.46687218511,0.00021345727532888907,0.0000693157194152169,0.0004333104753185353
24391.33502385294,0.00020519219129552763,0.00007051389618990466,0.0004120993090664406
24528.97552360163,0.00020047216726494754,0.00007225878809001031,0.0004163799978602101
24667.392729797608,0.0001985544747010121,0.00007452505636677385,0.00043733889863019717
24806.59102540161,0.00019869686326146177,0.00007730002977146528,0.0004405130862260179
24946.574818107445,0.00020020090029102434,0.00008058962889779122,0.0004296219327605458
25087.34854048158,0.00020241964444253803,0.00008439768285837623,0.0004270851595876092
25228.916650103485,0.00020476183768957485,0.00008873065076888396,0.0004203618284705768
25371.28362970679,0.0002067055999316842,0.00009359458003542285,0.00040535865711529293
25514.45398732123,0.0002078234098678796,0.00009899142518114351,0.00039350901390972
25658.43225641538,0.00020781296211188827,0.00010491449196320614,0.00038624008418567735
25803.22299604022,0.00020652443309645264,0.00011134282996288067,0.00038343535942169716
25948.830790973487,0.00020397447372961727,0.00010851571977009063,0.0003857677324859512
26095.260251864864,0.0002003411419636551,0.00010124742042543066,0.0003943641412437887
26242.51601538196,0.00019594051062324835,0.00009463631394651109,0.0004024457172957974
26390.60274435714,0.00019119189560759994,0.00008868019101390543,0.00040386437281334886
26539.52512793517,0.00018658179993575182,0.00008336297015968787,0.00039945740036501326
26689.28788172169,0.00018263574610656954,0.0000786547560064238,0.0004109301230135807
26839.895747932555,0.0001799029828336299,0.00007454912808501042,0.0004055427863385669
26991.353495543968,0.00017895287205597912,0.00007102649618146594,0.0003831674557056789
27143.665920443513,0.0001803735156245385,0.00006807224546241829,0.00036162980971231204
27296.837845582,0.00018475016357487643,0.00006567918630533512,0.00038092561038103126
27450.874121126184,0.00019257807616116106,0.00006384993007327745,0.00038736889028363747
27605.779624612373,0.0002040304126613515,0.00006259947742399446,0.00037806130556401025
27761.55926110082,0.00021848431825235762,0.00006195831852319953,0.00035275829557216055
27918.217963331103,0.0002338242600918629,0.0000619763749118677,0.0003199148923263158
28075.760691878262,0.0002459955929418325,0.00006272815333148782,0.0003306278976892275
28234.192435309924,0.0002499022888597565,0.00006431950553860748,0.0003361171687004387
28393.518210344228,0.0002421611070758239,0.000060842137120383554,0.0003399026897923663
28553.743062008703,0.0002236200264524788,0.000055082646733979005,0.00032774489177739535
28714.872063799998,0.00019870366626271814,0.00005014111866304918,0.0003010885197344997
28876.910317844562,0.00017237784077522232,0.00004586591284736797,0.0002957576047584851
29039.862955060165,0.00014795800874945478,0.000042138646395295215,0.0003018224886276731
29203.735135318406,0.0001268551039196602,0.000038866152125062815,0.00029294745822118306
29368.532047608063,0.00010925435497380646,0.0000359744565774248,0.0002694148065658912
29534.258910199434,0.00009478671529744295,0.000033404289349610475,0.0002443111971244649
29700.92097080955,0.00008292486043948528,0.00003110773007648978,0.00025875615463723435
29868.523506768353,0.00007316027568906759,0.000029045693650139064,0.0002625335140087133
30037.0718251858,0.00006506252614583527,0.00002718603216526622,0.0002514657114401369
30206.571263119917,0.000058287088423533516,0.0000255020917482016,0.00023215703380353057
30377.027187745785,0.000052564854871898016,0.000023971606531657345,0.00022090229483533335
30548.444996525504,0.00004768745605537735,0.000022575844082445845,0.00020094097079099147
30720.830117379086,0.00004349360926317395,0.000021298939702952853,0.00017685184881320476
30894.18800885635,0.00003985794284425045,0.00002012737367189963,0.00015277726210203828
31068.524160309746,0.00003668233324557893,0.000019049557498098748,0.0001310963467008044
31243.84409206819,0.000033889354450432106,0.00001805550395825231,0.00011262872617438357
31420.15335561186,0.00003141737500201372,0.000017136562022782656,0.00009731178268943043
31597.457533747973,0.00002921689654427312,0.000016285202412719375,0.00008472894275795354
31775.762240787582,0.000027247813313221528,0.00001549484295200005,0.00007439090793671526
31955.073122723334,0.00002547735082669641,0.000014753157987549867,0.00006585164830245373
32135.395857408268,0.000023878505386886404,0.00001405645016444469,0.00005874193355758011
32316.736154735583,0.000022428854021274248,0.000013407459391878307,0.000052768839339037435
32499.099756819454,0.000021109639837928216,0.000012801839475131848,0.000047704138441065336
32682.492438176858,0.000019905063446175014,0.000012235743592929023,0.000043370983416686944
32866.92000591041,0.00001880172964073738,0.000011705754876441236,0.000039632151425188546
33052.388299892256,0.000017788211937370577,0.000011208828271167092,0.00003638061345044985
33238.90319294899,0.000016854707237537734,0.000010742241596971441,0.00003353228326535783
33426.47059104761,0.000015992759940787285,0.000010303554149817748,0.00003102054845679476
33615.09643348253,0.000015195039967761896,0.000009890571520717054,0.000028792175547903337
33804.78669306366,0.000014455162937798924,0.000009501315566836557,0.000026804246089063948
33995.54737630552,0.00001376754354233928,0.000009133998673333551,0.000025021856949594486
34187.384523617424,0.000013127275238802664,0.000008787001605384766,0.00002341638488091098
34380.304209494796,0.000012530030951737542,0.000008458854377933892,0.00002196669691658645
34574.31254271145,0.000011971980647518621,0.000008148219672799337,0.00002065037378596268
34769.415666513094,0.000011449722545305409,0.000007853878414998654,0.000019450822911356718
34965.6197588118,0.000010960225412826813,0.0000075747171864536174,0.000018354101626233722
35162.93103238166,0.000010500779923667916,0.000007309717209095504,0.000017348359604988813
35361.35573505549,0.000010068957462045262,0.00000705794467323797,0.000016423464786305595
35560.90014992267,0.00000966257508012095,0.000006818542223107774,0.00001557070580026274
35761.57059552813,0.000009279665563194097,0.000006590721440931498,0.000014782553533905112
35963.37342607237,0.000008918451755483524,0.000006373756195446618,0.000014052468747257578
36166.31503161272,0.000008577324455895501,0.000006166976740970906,0.000013374745805601695
36370.40183826564,0.000008254823317982135,0.00000596976447003337,0.000012744384934226726
36575.64030841022,0.000007949620288446508,0.000005781547236654522,0.000012156987150453448
36782.036940892816,0.000007660505199244707,0.000005601795179257206,0.000011608667342840201
36989.5982712328,0.000007386373193587693,0.000005430016982058458,0.000011095981963292261
37198.33087182957,0.000007126213719272393,0.000005265756522295124,0.000010615868556891596
37408.24135217058,0.000006879100866209231,0.000005108589857688342,0.00001016559493651147
37619.336359040724,0.0000066441848605701374,0.000004958122514668325,0.000009742716259062702
37831.622576732734,0.000006420684557366791,0.000004813987042984816,0.000009345038609405674
38045.106727258855,0.0000062078807974870855,0.000004675840806808819,0.000008970587971131532
38259.79557056371,0.000006005110515475329,0.00000454336398616247,0.000008617583677990172
38475.69590473833,0.0000058117615010253525,0.000004416257765767134,0.000008284415609515357
38692.81456623545,0.000005627267731351907,0.000004294242691279262,0.0000079696245293358
38911.15843008595,0.000005451105203282236,0.000004177057175170848,0.000007671885072436656
39130.73441011656,0.000005282788203969004,0.0000040644561367631275,0.000007389990974351595
39351.54945916879,0.000005121865967458753,0.0000039562097626085914,0.000007122842205110022
39573.61056931911,0.000004967919671491854,0.00000385210237508495,0.000006869433727543542
39796.92477210033,0.000004820559735008611,0.0000037519313984348657,0.000006628845645733159
40021.49913872421,0.0000046794233819321314,0.000003655506412641216,0.000006400234547255412
40247.34078030549,0.000004544172441300897,0.0000035626482866574323,0.000006182825873900683
40474.45684808692,0.000004414491357521305,0.0000034731883833845787,0.000005975907181302685
40702.85453366581,0.000004290085387894686,0.0000033869678296342833,0.000005778822169061248
40932.541069221705,0.000004170678967217071,0.000003303836845024557,0.000005590965380738286
41163.52372774539,0.000004056014221844908,0.0000032236541243582943,0.000005411777487790237
41395.8098232692,0.000003945849617611692,0.0000031462862686930987,0.000005240741083929163
41629.40671109861,0.000003839958727823189,0.0000030716072606402112,0.000005077376926747947
41864.32178804514,0.0000037381291092185043,0.0000029994979800646656,0.0000049212405722756285
42100.56249266059,0.0000036401612750422357,0.000002929845756586607,0.000004773394332713057
42338.136305472544,0.0000035458677557247733,0.0000028625439557151216,0.000004632303547378534
42577.05074922131,0.000003455072238597993,0.0000027974915957619167,0.000004497115771858088
42817.31338909802,0.0000033676087791077895,0.000002734592992888133,0.000004367514663728577
43058.93183298427,0.000003283321076722649,0.0000026737574319680934,0.000004243204639892988
43301.91373169301,0.0000032020618095209126,0.0000026148988611176035,0.00000412390926166389
43546.26677921075,0.0000031236920220089746,0.0000025579356079593442,0.000004009369765201478
43791.99871294128,0.000003048080561352365,0.0000025027901158626597,0.0000038993437225001205
44039.11731395056,0.000002975103557630065,0.0000024493886985489554,0.000003793603819695922
44287.63040721321,0.00000290464394423159,0.0000023976613116428572,0.0000036919367410609414
