Frequency,Nominal,Min,Max
14412.412345810739,0.00007336548939387575,0.0000739762592197698,0.00007283860980396395
14493.741704614658,0.00007299594315491701,0.00007361387723900317,0.00007246362027506356
14575.53000564454,0.00007262902219339121,0.0000732543361616096,0.00007209110868037644
14657.779838715054,0.00007226472785914708,0.00007289764630582531,0.00007172107091528512
14740.493808255222,0.00007190306213573696,0.00007254381910902632,0.00007135350324700713
14823.674533390873,0.0000715440276699159,0.00007219286718981753,0.0000709884023285454
14907.324648027588,0.00007118762780307798,0.00007184480441468846,0.00007062576521347025
14991.446800934098,0.00007083386660477938,0.00007149964596963381,0.00007026558937158956
15076.043655826155,0.00007048274890851046,0.00007115740843717863,0.00006990787270556925
15161.117891450884,0.00007013428034989482,0.00007081810987929265,0.0000695526135685704
15246.672201671598,0.00006978846740750882,0.00007048176992673006,0.00006919981078297509
15332.709295553104,0.00006944531744653406,0.00007014840987538798,0.0000688494636602794
15419.231897447486,0.00006910483876547448,0.00006981805279034123,0.00006850157202223767
15506.242747080363,0.00006876704064619277,0.00006949072361828351,0.00006815613622335008
15593.744599637652,0.00006843193340754517,0.00006916644930918659,0.0000678131571747936
15681.740225852805,0.00006809952846292156,0.00006884525894808166,0.00006747263636990405
15770.232412094547,0.0000677698383820277,0.00006852718389797086,0.00006713457591132764
15859.2239604551,0.0000674428769572816,0.00006821225795499553,0.0000667989785399704
15948.717688838919,0.00006711865927523358,0.00006790051751712206,0.00006646584766588527
16038.716431051915,0.00006679720179346261,0.00006759200176775924,0.00006613518740125
16129.223036891188,0.00006647852242344898,0.00006728675287589504,0.00006580700259560264
16220.240372235265,0.0000661626406199777,0.00006698481621454056,0.00006548129887351709
16311.771319134852,0.00006584957747768714,0.00006668624059949719,0.00006515808267491919
16403.81877590409,0.00006553935583544532,0.00006639107855072537,0.000064837361298262
16496.385657212322,0.00006523200038931343,0.00006609938657889535,0.0000645191429468014
16589.474894176405,0.00006492753781494262,0.00006581122550004889,0.0000642034367782361
16683.089434453508,0.00006462599690034862,0.00006552666078170428,0.00006389025295800342
16777.23224233445,0.00006432740869012045,0.00006524576292420485,0.00006357960271655109
16871.906298837566,0.00006403180664224573,0.00006496860788165557,0.00006327149841093954
16967.11460180311,0.00006373922679888041,0.00006469527752742738,0.00006296595359116455
17062.860165988164,0.00006344970797255552,0.00006442586016995263,0.00006266298307163402
17159.146023162113,0.00006316329194950215,0.00006416045112540677,0.00006236260300827703
17255.975222202636,0.00006288002371199335,0.00006389915335489967,0.00006206483098181791
17353.35082919226,0.00006259995168185042,0.00006364207817501386,0.00006176968608780605
17451.275927515435,0.00006232312798754856,0.00006338934605196645,0.00006147718903406016
17549.75361795618,0.0000620496087576896,0.00006314108749138405,0.00006118736224626086
17648.787018796258,0.00006177945444399384,0.00006289744403772676,0.00006090022998251204
17748.37926591392,0.00006151273017741134,0.00006265856939984862,0.000060615818457789106
17848.533512883212,0.00006124950616147438,0.00006242463072213574,0.00006033415597930308
17949.252931073814,0.00006098985810762318,0.0000621958100242307,0.00006005527309393784
18050.540709751473,0.000060733867717951666,0.00006197230583668483,0.00005977920274906194
18152.400056178987,0.00006048162322166299,0.00006175433506516166,0.000059505980468183985
18254.834195717773,0.00006023321997251706,0.00006154213512228499,0.000059235644543112037
18357.846371929976,0.00005998876111573086,0.00006133596637418939,0.00005896823624449845
18461.439846681198,0.000059748358334191026,0.00006113611495868017,0.00005870380005290675
18565.617900243768,0.00005951213268551,0.00006094289604415558,0.000058442383912832806
18670.38383140062,0.000059280215543457826,0.00006075665761374589,0.00005818403951245663
18775.74095754975,0.000059052749659710905,0.00006057778487835039,0.000057928822592300453
18881.692614809257,0.00005882989036476746,0.000060406705446542386,0.00005767679328643795
18988.242158122976,0.000058611806930411635,0.0000602438954101702,0.00005742801650044695
19095.39296136672,0.00005839868412041069,0.00006008988654391075,0.00005718256233094389
19203.148417455115,0.00005819072396140279,0.000059945274867699466,0.00005694050653229975
19311.511938449024,0.00005798814777242146,0.00005981073088644528,0.00005670193103703928
19420.4869556636,0.00005779119849953143,0.00005968701190655197,0.00005646692453749775
19530.076919776937,0.00005760014341203665,0.000059574976939985996,0.000056235583137589194
19640.28530093933,0.00005741527722921101,0.00005947560485269706,0.00005600801108507312
19751.115588883164,0.0000572369257622124,0.00005939001660686307,0.000055784321596551527
19862.571293033405,0.00005706545017571939,0.00005932606766415866,0.00005556463778965557
19974.65594261874,0.000056901251999136174,0.00005928416661424135,0.00005534909373958608
20087.37308678332,0.00005674477904963176,0.00005926304041354162,0.00005513783568046861
20200.72629469914,0.00005659653247108082,0.00005926532959090476,0.00005493102337602262
20314.719155679064,0.00005645707514722845,0.00005929421771862271,0.0000547288316890177
20429.35527929048,0.00005632704181829233,0.00005935357684126763,0.000054531452385144214
20544.638295469595,0.000056207151323471514,0.00005944815828686932,0.0000543390962145864
20660.57185463637,0.00005609822151533506,0.000059583842823572844,0.000054151995324171996
20777.15962781012,0.00005600118755670239,0.00005976830950741235,0.000053970406065041875
20894.405306725745,0.00005591712453147865,0.0000600107765234493,0.00005379461227607111
21012.31260395064,0.000055847275598843405,0.00006032318618502592,0.0000536249291427616
21130.885253002245,0.00005579308732400115,0.00006071944760621325,0.00005346170775633634
21250.127008466272,0.000055756254367709235,0.00006121741114301321,0.000053305340530081196
21370.041646115587,0.00005573877646361701,0.00006183822711201726,0.0000531562676720342
21490.632963029777,0.00005574303162467872,0.00006260483590500339,0.000053014984968255786
21611.904777715376,0.00005577187087732213,0.00006353747608286027,0.00005288205320374223
21733.860930226783,0.00005582874160057756,0.0000646443731884561,0.00005275810964500266
21856.505282287853,0.000055917848768386155,0.0000659081297915505,0.000052643882138430645
21979.84171741418,0.00005604436588773156,0.00006727541207126201,0.00005254020655460996
22103.87414103607,0.000056214709494880375,0.00006866381685906016,0.0000524480485487104
22228.606480622202,0.00005643689068404106,0.00006998973867611098,0.00005236853093700951
22354.04268580399,0.00005672094909224865,0.0000711978757411553,0.00005230296844635202
22480.186728500656,0.00005707944671758074,0.00007227066198047713,0.00005225291223005967
22607.04260304499,0.000057527923794045715,0.00007321858419613311,0.000052214963837311644
22734.61432630983,0.000058085043511762116,0.00007406561049794857,0.000052188439520157305
22862.905937835272,0.000058771795287024356,0.00007483874875670489,0.000052181063684706604
22991.921499956556,0.000059608547765067696,0.00007556284343115792,0.0000521952665069919
23121.665097932717,0.000060608261523523425,0.00007625872031982182,0.00005223397347234096
23252.140840075943,0.00006176516241328648,0.00007694289206314655,0.000052300736663738274
23383.35285788166,0.00006304298818246641,0.00007762780279174018,0.00005239990635279959
23515.30530615935,0.00006437413733279146,0.00007832215963528513,0.0000525368547682453
23648.002363164123,0.00006567880677512276,0.00007903120643131118,0.000052718264909059125
23781.44823072902,0.00006689412450729972,0.00007975694167109542,0.00005295249398595959
23915.647134398052,0.00006799089418572715,0.00008050233903822987,0.000053250005962832794
24050.60332356001,0.00006897023526697296,0.00008126531657050598,0.00005362382358207568
24186.32107158303,0.00006985063256028969,0.00008203814428900737,0.000054089841571893936
24322.804675949883,0.00007065645871714989,0.00008282082065771154,0.00005466660661124763
24460.058458394084,0.00007141138488389201,0.00008359480324946863,0.00005537373596755757
24598.086765036714,0.00007213558922613178,0.00008435354614686997,0.000056227589838643615
24736.893966524058,0.00007284496897815983,0.00008509181506267834,0.000057232824596252964
24876.48445816599,0.00007355116714802654,0.0000858065638548516,0.000058370897880754405
25016.862660075152,0.00007426184226554489,0.00008649762123613089,0.000059592772348592696
25158.03301730692,0.00007498097967596639,0.0000871681853027844,0.000060827085397543074
25300.000000000153,0.00007570922460970277,0.00008782516681312246,0.000062004647645286
25442.768103518734,0.00007644429022820916,0.00008847942435016307,0.00006308180515574984
25586.34184859393,0.00007718150355643593,0.00008914586357504767,0.0000640463493389457
25730.72578146752,0.00007791452150172974,0.00008984317870253146,0.00006490859086997764
25875.92447403577,0.00007863619585325329,0.00009059262310893747,0.00006568930360344446
26021.942523994196,0.00007933951194519295,0.00009141459009893089,0.00006641130568721495
26168.784554983136,0.00008001849361771011,0.00009232136815583501,0.00006709527973712842
26316.455216734175,0.00008066897183834208,0.0000933057666321489,0.00006775825633202059
26464.95918521737,0.00008128915389391344,0.00009433065591883726,0.00006841334072608738
26614.30116278931,0.00008187998706618009,0.00009533108099026878,0.00006906988537736491
26764.485878342028,0.00008244536220846982,0.00009623545915767102,0.00006973376743997818
26915.51808745273,0.00008299223036422538,0.00009699254638508255,0.00007040767747968398
27067.402572534378,0.0000835306984574382,0.00009758417931623372,0.00007109143986695715
27220.144142987134,0.00008407411673999652,0.00009801554610186837,0.00007178242479226876
27373.74763535064,0.00008463904458974475,0.00009830508111287067,0.000072466214200193
27528.21791345717,0.00008524472753942947,0.00009847545446383741,0.00007314461451023277
27683.55986858565,0.00008591127478464318,0.00009854785539585683,0.00007381109169152067
27839.778419616523,0.00008665518762921119,0.00009854026039649225,0.00007445939757488358
27996.87851318752,0.00008748100380167302,0.00009846726895113363,0.00007508447467985315
28154.865123850283,0.00008837048356187402,0.00009834052734657286,0.00007568311452949392
28313.743254227895,0.0000892768939574128,0.00009816928474783997,0.00007625443032142421
28473.517935173277,0.00009013477974547012,0.00009796090691084669,0.00007680015246450297
28634.194225928495,0.00009088381127547231,0.00009772129839365817,0.00007732479685311331
28795.777214284957,0.00009148882548444309,0.00009745523264020171,0.00007783577173014016
28958.272016744522,0.0000919427215094968,0.00009716660447623483,0.00007834346939935198
29121.683778681512,0.00009225704251005615,0.000096861222089517,0.00007886131915845292
29286.01767450563,0.00009245118410631528,0.00009654540915798613,0.00007940562431979285
29451.27890782582,0.00009254547246472385,0.00009621324779526358,0.00007999471168176225
29617.472711615035,0.00009255804884742916,0.0000958670371790488,0.00008064645771932688
29784.604348375928,0.0000925039937212635,0.0000955086996333195,0.00008137286975177644
29952.679110307505,0.00009239544948082478,0.00009513985689799096,0.00008217116355757963
30121.70231947269,0.00009224207506762107,0.0000947618884572116,0.00008301452906407036
30291.679327966853,0.0000920515419845677,0.00009437597661817808,0.0000838514188422985
30462.61551808728,0.00009182996863176385,0.00009398314170998486,0.00008461961911948774
30634.516302503605,0.00009158226984445289,0.000093584269841767,0.00008527118634216664
30807.3871244292,0.00009131242786641008,0.00009318013500163913,0.00008578406745374312
30981.23345779353,0.00009102369909231401,0.00009277141680960893,0.00008615910530437394
31156.060807415488,0.00009071877103916423,0.00009235871490151917,0.00008641049040281685
31331.874709177715,0.00009039988167942829,0.00009194256067775454,0.00008655693472651776
31508.680730201868,0.00009006891059228694,0.00009152342697276162,0.00008661669551354595
31686.484469024927,0.00008972744905769396,0.00009110173607051129,0.00008660559141509611
31865.291555776454,0.00008937685437917954,0.0000906778663937318,0.00008653660789882965
32045.107652356885,0.00008901829233511072,0.00009025215812179507,0.00008642015577604998
32225.938452616796,0.00008865277063525619,0.00008982491793699777,0.00008626451645796227
32407.789682537215,0.00008828116551178523,0.0000893964230569546,0.0000860762819641758
32590.667100410927,0.00008790424302866989,0.00008896692467854401,0.00008586072733887547
32774.576497024806,0.00008752267629543107,0.00008853665093386568,0.00008562210626344733
32959.52369584318,0.0000871370594794473,0.00008810580943919719,0.00008536387906048845
33145.51455319224,0.00008674791929609548,0.00008767458950265036,0.00008508888650948527
33332.55495844547,0.0000863557244966215,0.00008724316404414845,0.00008479948200792813
33520.650834210144,0.0000859608937546712,0.00008681169127173657,0.00008449763231001777
33709.80813651484,0.000085563802262978,0.00008638031615055011,0.0000841849947287012
33900.03285499806,0.0000851647872839892,0.00008594917169457574,0.00008386297671729408
34091.33101309789,0.00008476415284657356,0.00008551838010632917,0.00008353278221697068
34283.708668242725,0.00008436217374129532,0.00008508805378549652,0.00008319544801004176
34477.171912043064,0.00008395909893606911,0.00008465829622424769,0.00008285187247459462
34671.726870484425,0.00008355515451013213,0.00008422920280418926,0.00008250283851855422
34867.37970412131,0.00008315054618555353,0.00008380086150765538,0.00008214903202019532
35064.13660827229,0.00008274546152074085,0.00008337335355415593,0.00008179105677200735
35262.00381321614,0.0000823400718186867,0.00008294675397123296,0.00008142944668214906
35460.98758438918,0.0000819345337933472,0.00008252113210766356,0.00008106467580836394
35661.09422258361,0.00008152899103003311,0.00008209655209584512,0.00008069716666580856
35862.33006414708,0.000081123575269632,0.00008167307326926853,0.00008032729715032524
36064.70148118327,0.00008071840754155707,0.00008125075054019644,0.00007995540634333335
36268.214881753716,0.00008031359916630437,0.00008082963474199525,0.00007958179940727545
36472.87671008069,0.00007990925264520739,0.000080409772939998,0.00007920675173677129
36678.69344675125,0.00007950546245226654,0.00007999120871428739,0.00007883051249690525
36885.67160892248,0.00007910231574068803,0.0000795739824173696,0.00007845330765391733
37093.817750527814,0.00007869989297490097,0.00007915813140934822,0.0000780753425831433
37303.1384624846,0.00007829826849726561,0.00007874369027289734,0.00007769680432300182
37513.64037290278,0.00007789751103738249,0.00007833069101006269,0.00007731786353113523
37725.33014729477,0.00007749768417081417,0.00007791916322268641,0.00007693867618871362
37938.214488786536,0.0000770988467331063,0.00007750913427804782,0.00007655902000159373
38152.300138329825,0.00007670105319420952,0.00007710062946113407,0.00007617920821706683
38367.593874915634,0.00007630435399773707,0.00007669367211480101,0.00007579961377354284
38584.102515788865,0.00007590879586892356,0.00007628828376894715,0.00007542033955951604
38801.83291666419,0.00007551442209466426,0.00007588448425970545,0.00007504148055302581
39020.79197194312,0.00007512127277859512,0.00007548229183955119,0.00007466312450354555
39240.98661493235,0.00007472938507381537,0.00007508172327913328,0.00007428535254396452
39462.42381806325,0.00007433879339554301,0.00007468279396155225,0.0000739082397410122
39685.11059311272,0.00007394952961572497,0.00007428551796973775,0.00007353185559133642
39909.05399142512,0.0000735616232413907,0.00007388990816751229,0.00007315626446948444
40134.26110413565,0.00007317510157833463,0.00007349597627487205,0.00007278152603321572
40360.73906239482,0.00007278998988153549,0.00007310373293796365,0.00007240769559087728
40588.495037594286,0.00007240631149356712,0.00007271318779419098,0.00007203482443497364
40817.536241593916,0.00007202408797211763,0.00007232434953284552,0.00007166296014555038
41047.869926950174,0.00007164333920761662,0.00007193722595161685,0.00007129214686656884
41279.50338714575,0.00007126408353186419,0.00007155182400930828,0.00007092242555806766
41512.44395682052,0.00007088633781846325,0.00007116814987505245,0.00007055383422657744
41746.69901200379,0.00007051011757577532,0.00007078620897429635,0.00007018640813596787
41982.27597034785,0.00007013543703304707,0.00007040600603180073,0.00006982018000065821
42219.18229136288,0.00006976230922029142,0.00007002754511187858,0.00006945518016290442
42457.42547665312,0.00006939074604244922,0.00006965082965607729,0.00006909143675568695
42697.01307015444,0.00006902075834830782,0.00006927586251849217,0.00006872897585255681
42937.95265837318,0.00006865235599460636,0.00006890264599888293,0.00006836782160565146
43180.2518706264,0.00006828554790571859,0.0000685311818737515,0.0000680079963729642
43423.918379283474,0.00006792034212926666,0.00006816147142552505,0.0000676495208358376
43668.95990000901,0.00006755674588798776,0.00006779351546997784,0.00006729241410755145
43915.384192007165,0.00006719476562814626,0.00006742731438201413,0.00006693669383378761
44163.19905826735,0.0000668344070647577,0.0000670628681199247,0.00006658237628567582
44412.412345811324,0.00006647567522386783,0.0000667001762482212,0.00006622947644605528
