Frequency,Nominal,Min,Max
14412.412345810739,-380.65452663482705,-383.8234866033261,-377.9208285085229
14493.741704614658,-380.87436440595656,-384.09858812783665,-378.09683828929764
14575.53000564454,-381.09833721374287,-384.37947891616056,-378.275802375963
14657.779838715054,-381.3265695830531,-384.6663541120706,-378.4578002183228
14740.493808255222,-381.55919119431167,-384.95941790536415,-378.64291421153786
14823.674533390873,-381.7963371552279,-385.25888406750033,-378.8312298349549
14907.324648027588,-382.03814829003784,-385.56497652617037,-379.0228357989268
14991.446800934098,-382.28477144760456,-385.87792998217947,-379.2178242001675
15076.043655826155,-382.53635982984133,-386.19799057236867,-379.4162906862359
15161.117891450884,-382.79307334205606,-386.5254165826842,-379.61833462978393
15246.672201671598,-383.05507896695843,-386.8604792159358,-379.82405931325945
15332.709295553104,-383.3225511642392,-387.20346341926694,-380.0335721248122
15419.231897447486,-383.5956722978051,-387.55466877690066,-380.24698476620995
15506.242747080363,-383.8746330929545,-387.9144104743349,-380.4644134736436
15593.744599637652,-384.15963312600155,-388.28302034084624,-380.6859792523741
15681.740225852805,-384.4508813490978,-388.66084797793854,-380.9118081262548
15770.232412094547,-384.74859665327836,-389.0482619822437,-381.14203140325475
15859.2239604551,-385.0530084730603,-389.4456512723792,-381.3767859582088
15948.717688838919,-385.3643574362652,-389.8534265303909,-381.61621453412783
16038.716431051915,-385.6828960631157,-390.27202176969007,-381.86046606352534
16129.223036891188,-386.00888951908104,-390.7018960428567,-382.10969601135076
16220.240372235265,-386.34261642642787,-391.1435353043461,-382.36406674126516
16311.771319134852,-386.68436973996677,-391.59745444504955,-382.6237479071631
16403.81877590409,-387.0344576930894,-392.0641995178483,-382.8889168720226
16496.385657212322,-387.39320482087396,-392.54435017582387,-383.15975915636864
16589.474894176405,-387.7609530678047,-393.0385223476955,-383.4364689188604
16683.089434453508,-388.1380629885232,-393.54737117841705,-383.7192494717624
16777.23224233445,-388.52491505101705,-394.0715942667645,-384.00831383433695
16871.906298837566,-388.9219110527717,-394.61193523627645,-384.3038853275118
16967.11460180311,-389.32947566169264,-395.1691876811944,-384.6061982135178
17062.860165988164,-389.7480580950597,-395.744199535227,-384.9154983845909
17159.146023162113,-390.1781339514459,-396.3378779182119,-385.23204410526523
17255.975222202636,-390.62020721244176,-396.951194524275,-385.55610681327994
17353.35082919226,-391.0748124332283,-397.5851916251624,-385.88797198467887
17451.275927515435,-391.5425171435651,-398.2409887743459,-386.2279400693075
17549.75361795618,-392.0239244836903,-398.9197903116978,-386.5763275036242
17648.787018796258,-392.5196761030104,-399.6228937854586,-386.93346780854347
17748.37926591392,-393.03045535338896,-400.35169942851667,-387.2997127809456
17848.533512883212,-393.556990813424,-401.1077208504235,-387.67543378852105
17949.252931073814,-394.1000601854513,-401.8925971360558,-388.06102317880874
18050.540709751473,-394.660494613277,-402.70810657760944,-388.45689581463466
18152.400056178987,-395.23918347601614,-403.5561823102092,-388.86349074971355
18254.834195717773,-395.8370797220983,-404.4389301747978,-389.2812730599544
18357.846371929976,-396.4552058177978,-405.3586491976434,-389.7107358480632
18461.439846681198,-397.0946603968635,-406.3178551570058,-390.1524024414018
18565.617900243768,-397.7566257124032,-407.3193078084252,-390.6068288058026
18670.38383140062,-398.4423760096268,-408.36604246618487,-391.07460620122026
18775.74095754975,-399.1532869590358,-409.46140679690933,-391.55636410880004
18881.692614809257,-399.8908463149685,-410.6091038813775,-392.0527734632696
18988.242158122976,-400.65666599513037,-411.8132428549002,-392.5645502296207
19095.39296136672,-401.45249581414873,-413.07839876157055,-393.09245936899913
19203.148417455115,-402.2802391499926,-414.40968367544696,-393.6373192457368
19311.511938449024,-403.1419708784387,-415.81283168194193,-394.20000653576307
19420.4869556636,-404.03995798043377,-417.294301015343,-394.7814617064898
19530.076919776937,-404.97668331381306,-418.86139756747093,-395.382695150026
19640.28530093933,-405.9548731491226,-420.52242519104465,-396.0047940656431
19751.115588883164,-406.9775292054414,-422.28686981802355,-396.6489302043314
19862.571293033405,-408.04796609433794,-424.2125694652831,-397.31636860870026
19974.65594261874,-409.1698552993171,-426.30509914716794,-398.00847750623456
20087.37308678332,-410.347277098934,-428.5579690958141,-398.72673954407736
20200.72629469914,-411.58478220384814,-430.9929726591603,-399.47276459043115
20314.719155679064,-412.88746534812515,-433.6363369834235,-400.24830437309635
20429.35527929048,-414.2610536894446,-436.51991101929264,-401.0552692818564
20544.638295469595,-415.71201368140106,-439.6827273607993,-401.8957477313035
20660.57185463637,-417.24768115255966,-443.17305577144316,-402.7720285681158
20777.15962781012,-418.87642075651416,-447.0536546351524,-403.6866271167984
20894.405306725745,-420.6078228770539,-451.40021548282505,-404.6423155971819
21012.31260395064,-422.45294866627756,-456.3106723389892,-405.6421588244674
21130.885253002245,-424.42463741551285,-461.90004479732664,-406.68955633032596
21250.127008466272,-426.5378952588624,-468.3159942906704,-407.78829233775724
21370.041646115587,-428.8103907591682,-475.7347759340746,-408.94259540523785
21490.632963029777,-431.2630918413114,-484.35031805224884,-410.1572100575973
21611.904777715376,-433.92109056326035,-494.339717850892,-411.43748338416793
21733.860930226783,-436.814678108347,-505.78985404785095,-412.7894704678119
21856.505282287853,-439.98075251294597,-518.5876992965054,-414.2200636939495
21979.84171741418,-443.464664891467,-532.3330471680555,-415.73715259340656
22103.87414103607,-447.3226308779068,-546.3850917224939,-417.3498230629119
22228.606480622202,-451.62483624195914,-560.0787691366278,-419.0686078201466
22354.04268580399,-456.4593061874789,-572.9617272442874,-420.90580412784436
22480.186728500656,-461.9363834054588,-584.8768714728524,-422.87588065429094
22607.04260304499,-468.1930406676181,-595.8920348123823,-424.95332831516083
22734.61432630983,-475.3947824520613,-606.1871122248764,-427.1342561217801
22862.905937835272,-483.7298498801814,-615.971258398739,-429.48387027347013
22991.921499956556,-493.385418338705,-625.4405872137687,-432.02500927130495
23121.665097932717,-504.4910130413388,-634.7622931314611,-434.78511889023696
23252.140840075943,-517.0220119598048,-644.0713066422162,-437.79747418018775
23383.35285788166,-530.6963176389153,-653.4713895340722,-441.1027799882884
23515.30530615935,-544.9598975524399,-663.0370185821329,-444.7512646922311
23648.002363164123,-559.142128018045,-672.814856322489,-448.80539513448326
23781.44823072902,-572.7020972077042,-682.8248085812747,-453.3433179894316
23915.647134398052,-585.3766441312968,-693.0955922155138,-458.4630069042125
24050.60332356001,-597.1592770338873,-703.6127614082764,-464.2867114794234
24186.32107158303,-608.1947374162818,-714.3123232406836,-470.96433898879894
24322.804675949883,-618.6827680097592,-725.1964718253815,-478.672270164852
24460.058458394084,-628.8215935877561,-736.1041587479835,-487.6001347774094
24598.086765036714,-638.7830937473175,-746.976904941325,-497.91280803834684
24736.893966524058,-648.7049784986906,-757.7665943848375,-509.67443283918465
24876.48445816599,-658.6900079176264,-768.4436347717836,-522.7425842183212
25016.862660075152,-668.8073911828682,-779.0036799194951,-536.6967124960323
25158.03301730692,-679.0946264488733,-789.4728302062241,-550.9043362000571
25300.000000000153,-689.5596177451771,-799.9116193339242,-564.7383307532683
25442.768103518734,-700.1835656811871,-810.41813124265,-577.7912664464743
25586.34184859393,-710.9252403780376,-821.1299543349435,-589.9362438026637
25730.72578146752,-721.7269873758947,-832.2228700308793,-601.2522549132701
25875.92447403577,-732.5223353367362,-843.9004344497953,-611.9177251661044
26021.942523994196,-743.2445590990422,-856.3626753871927,-622.1344246330018
26168.784554983136,-753.8352191626136,-869.7376775128778,-632.0886912350061
26316.455216734175,-764.2516985149391,-883.9717304536787,-641.9365625972213
26464.95918521737,-774.4730904011782,-898.724505170452,-651.8002572144977
26614.30116278931,-784.5043085944598,-913.3812358737382,-661.7688230565099
26764.485878342028,-794.3787837228181,-927.2493315436489,-671.8998362007178
26915.51808745273,-804.1603958950867,-939.8176691672834,-682.2212820119902
27067.402572534378,-813.9452552324842,-950.8860958546369,-692.7338240424176
27220.144142987134,-823.8634474885317,-960.4790255327248,-703.4140619203279
27373.74763535064,-834.0796248108707,-968.7522533963025,-714.1218694579246
27528.21791345717,-844.7887568443314,-975.9073570586082,-724.8747194760632
27683.55986858565,-856.1987707993856,-982.1359637178925,-735.6073592908358
27839.778419616523,-868.4860401027123,-987.6020453458767,-746.2559267074406
27996.87851318752,-881.7102128329686,-992.4394198860899,-756.7671297018071
28154.865123850283,-895.7012564210371,-996.755142114385,-767.1052374230934
28313.743254227895,-909.9946994562417,-1000.6343725685514,-777.2574103625577
28473.517935173277,-923.9235363595931,-1004.1449903538598,-787.2373867039443
28634.194225928495,-936.8584934596216,-1007.3414297570121,-797.087970566104
28795.777214284957,-948.4170610487829,-1010.2677002904816,-806.8829551354999
28958.272016744522,-958.5008421954464,-1012.9597068118442,-816.7289391366966
29121.683778681512,-967.2049506003239,-1015.4742768387197,-826.7667836047718
29286.01767450563,-974.7097242359483,-1017.8750012375374,-837.1708262224586
29451.27890782582,-981.2097076374349,-1020.0971503605837,-848.1407633606492
29617.472711615035,-986.8807749524632,-1022.1621687337903,-859.8759338846086
29784.604348375928,-991.8701473076943,-1024.0879789462674,-872.517142889492
29952.679110307505,-996.2968498386382,-1025.8896975357957,-886.0487378978795
30121.70231947269,-1000.2557975462407,-1027.580182322113,-900.1940157572907
30291.679327966853,-1003.8224849189048,-1029.1704551933574,-914.4001046757397
30462.61551808728,-1007.0571698882777,-1030.670031993545,-927.9845721086193
30634.516302503605,-1010.0082738852635,-1032.0871824451829,-940.4069573278537
30807.3871244292,-1012.7150332387242,-1033.429136868746,-951.40187105602
30981.23345779353,-1015.2095298375345,-1034.7022520599553,-960.9535281417932
31156.060807415488,-1017.5182368732733,-1035.9121455239335,-969.1957776199514
31331.874709177715,-1019.6631959415613,-1037.063804974695,-976.3167722622221
31508.680730201868,-1021.662917125008,-1038.161678334729,-982.504009742914
31686.484469024927,-1023.5330715642642,-1039.209748235807,-987.921621829858
31865.291555776454,-1025.2870283270634,-1040.2115941051227,-992.705126739881
32045.107652356885,-1026.9362739267356,-1041.170444233365,-996.9635502637103
32225.938452616796,-1028.490742852459,-1042.089219701656,-1000.7837992868546
32407.789682537215,-1029.9590801406698,-1042.9705716483259,-1004.235135317921
32590.667100410927,-1031.3488516539594,-1043.816913052474,-1007.3730174121591
32774.576497024806,-1032.6667138088203,-1044.6304459760509,-1010.2421777643868
32959.52369584318,-1033.9185516116183,-1045.4131850229587,-1012.8790060787736
33145.51455319224,-1035.1095917356363,-1046.1669776298913,-1015.3133734014242
33332.55495844547,-1036.2444957936045,-1046.893521690091,-1017.5700220117102
33520.650834210144,-1037.3274377809087,-1047.5943809209668,-1019.6696264333685
33709.80813651484,-1038.3621687776456,-1048.2709983143538,-1021.6296073000912
33900.03285499806,-1039.3520713258158,-1048.9247079501552,-1023.4647597723144
34091.33101309789,-1040.300205385451,-1049.5567454071656,-1025.1877424413553
34283.708668242725,-1041.2093473798482,-1050.168256966703,-1026.809460756074
34477.171912043064,-1042.0820235356712,-1050.7603077734593,-1028.3393701948562
34671.726870484425,-1042.9205384867132,-1051.333889092377,-1029.7857179357977
34867.37970412131,-1043.7269999244375,-1051.8899247791655,-1031.155737038701
35064.13660827229,-1044.5033399320064,-1052.4292770645745,-1032.455803675903
35262.00381321614,-1045.2513335223678,-1052.9527517379065,-1033.6915653890476
35460.98758438918,-1045.9726148082962,-1053.4611028030547,-1034.8680464542538
35661.09422258361,-1046.6686911579066,-1053.9550366701037,-1035.9897350273757
35862.33006414708,-1047.34095562916,-1054.4352159368793,-1037.0606556836826
36064.70148118327,-1047.9906979281893,-1054.902262807539,-1038.0844301684488
36268.214881753716,-1048.6191140966027,-1055.3567621890859,-1039.0643285686872
36472.87671008069,-1049.2273151004017,-1055.7992645014065,-1040.0033126524422
36678.69344675125,-1049.8163344663953,-1056.2302882319198,-1040.9040727647412
36885.67160892248,-1050.3871350898746,-1056.650322262056,-1041.7690593922173
37093.817750527814,-1050.9406153189275,-1057.05982798945,-1042.6005102920908
37303.1384624846,-1051.4776144054663,-1057.459241266881,-1043.4004739112634
37513.64037290278,-1051.9989174002128,-1057.8489741764856,-1044.1708296869456
37725.33014729477,-1052.505259558108,-1058.2294166556458,-1044.9133057134102
37938.214488786536,-1052.9973303115198,-1058.6009379890645,-1045.624507873834
38152.300138329825,-1053.4757768609338,-1058.963888179923,-1046.3083258312279
38367.593874915634,-1053.9412074262693,-1059.3185992115857,-1046.9695669699508
38584.102515788865,-1054.3941941963892,-1059.6653862100736,-1047.6094008023902
38801.83291666419,-1054.8352760096222,-1060.0045485164367,-1048.2289164855406
39020.79197194312,-1055.2649607940152,-1060.3363706771856,-1048.8291297221303
39240.98661493235,-1055.6837277925372,-1060.6611233601086,-1049.4109889507672
39462.42381806325,-1056.0920295954095,-1060.9790642020334,-1049.9753809104657
39685.11059311272,-1056.4902939991355,-1061.2904385944537,-1050.5231356532329
39909.05399142512,-1056.8789257095125,-1061.5954804123292,-1051.0550310685069
40134.26110413565,-1057.258307903951,-1061.8944126908666,-1051.571796974829
40360.73906239482,-1057.6288036666847,-1062.1874482546134,-1052.0741188269772
40588.495037594286,-1057.9907573089758,-1062.4747903027856,-1052.562641080645
40817.536241593916,-1058.3444955850775,-1062.756632954386,-1053.0379702515252
41047.869926950174,-1058.690328813582,-1063.0331617563336,-1053.5006777011008
41279.50338714575,-1059.028551912753,-1063.3045541575311,-1053.9513021775847
41512.44395682052,-1059.3594453575529,-1063.5709799515387,-1054.3903521370564
41746.69901200379,-1059.6832760652806,-1063.8326016902704,-1054.8183078669258
41982.27597034785,-1060.0002982160413,-1064.089575070932,-1055.2356234313181
42219.18229136288,-1060.3107540136473,-1064.342049298214,-1055.6427284557603
42457.42547665312,-1060.6148743919944,-1064.5901674235868,-1056.0400297666097
42697.01307015444,-1060.912879671481,-1064.8340666633815,-1056.427912898981
42937.95265837318,-1061.2049801695885,-1065.0738786972051,-1056.8067434854436
43180.2518706264,-1061.4913767693554,-1065.3097299481067,-1057.1768685364468
43423.918379283474,-1061.7722614491424,-1065.5417418457905,-1057.5386176222976
43668.95990000901,-1062.0478177767488,-1065.770031074077,-1057.8923039654874
43915.384192007165,-1062.3182213706914,-1065.9947098037042,-1058.2382254512743
44163.19905826735,-1062.5836403311791,-1066.215885911484,-1058.576665563634
44412.412345811324,-1062.8442356431144,-1066.4336631867445,-1058.907894252986
